Profile Data:           	                  	     	                        	     	            	          	         	     	      	     
Time                    	P                 	T    	Hu                      	Ws   	Wd          	Long.     	Lat.     	Alt  	Geopot	Dewp.
[sec]                   	[hPa]             	[°C] 	[%]                     	[m/s]	[°]         	[°]       	[°]      	[m]  	[m]   	[°C] 
0                       	1012.9            	3.3  	35                      	3.5  	350         	-75.479099	37.843883	3    	3     	-10.6
1                       	1012.2            	0.1  	34                      	3.5  	350         	-75.479075	37.843863	9    	9     	-14.0
2                       	1011.4            	1.4  	33                      	3.5  	349         	-75.479051	37.843844	15   	15    	-13.0
3                       	1010.7            	1.7  	34                      	3.5  	349         	-75.479027	37.843824	21   	21    	-12.6
4                       	1010.0            	1.6  	34                      	3.5  	348         	-75.479003	37.843805	26   	26    	-12.5
5                       	1009.3            	1.5  	34                      	3.5  	348         	-75.478979	37.843785	32   	32    	-12.5
6                       	1008.5            	1.5  	34                      	3.4  	348         	-75.478955	37.843766	38   	38    	-12.5
7                       	1007.8            	1.4  	34                      	3.4  	347         	-75.478931	37.843746	44   	44    	-12.5
8                       	1007.1            	1.4  	35                      	3.4  	347         	-75.478906	37.843727	50   	50    	-12.5
9                       	1006.3            	1.4  	35                      	3.4  	347         	-75.478882	37.843707	56   	55    	-12.4
10                      	1005.6            	1.3  	35                      	3.4  	346         	-75.478858	37.843688	61   	61    	-12.4
11                      	1004.9            	1.2  	35                      	3.4  	346         	-75.478834	37.843668	67   	67    	-12.4
12                      	1004.1            	1.2  	35                      	3.4  	345         	-75.478810	37.843649	73   	73    	-12.4
13                      	1003.4            	1.2  	35                      	3.4  	345         	-75.478786	37.843629	79   	79    	-12.4
14                      	1002.7            	1.1  	35                      	3.4  	345         	-75.478762	37.843610	84   	84    	-12.4
15                      	1002.0            	1.1  	36                      	3.4  	344         	-75.478741	37.843589	90   	90    	-12.4
16                      	1001.3            	1.0  	36                      	3.4  	344         	-75.478726	37.843566	96   	96    	-12.4
17                      	1000.6            	1.0  	36                      	3.4  	343         	-75.478710	37.843543	101  	101   	-12.4
18                      	999.9             	0.9  	36                      	3.3  	343         	-75.478694	37.843520	107  	107   	-12.4
19                      	999.2             	0.8  	36                      	3.3  	343         	-75.478678	37.843497	113  	112   	-12.4
20                      	998.5             	0.8  	36                      	3.3  	342         	-75.478662	37.843474	118  	118   	-12.4
21                      	997.8             	0.7  	36                      	3.3  	342         	-75.478646	37.843451	124  	124   	-12.4
22                      	997.1             	0.7  	37                      	3.3  	341         	-75.478631	37.843428	129  	129   	-12.4
23                      	996.4             	0.6  	37                      	3.3  	341         	-75.478615	37.843405	135  	135   	-12.4
24                      	995.7             	0.6  	37                      	3.3  	341         	-75.478599	37.843383	141  	141   	-12.4
25                      	995.0             	0.5  	37                      	3.3  	340         	-75.478583	37.843360	146  	146   	-12.4
26                      	994.3             	0.5  	37                      	3.3  	340         	-75.478567	37.843337	152  	152   	-12.4
27                      	993.6             	0.4  	37                      	3.3  	339         	-75.478551	37.843314	158  	157   	-12.4
28                      	992.9             	0.4  	37                      	3.3  	339         	-75.478536	37.843291	163  	163   	-12.4
29                      	992.3             	0.3  	38                      	3.3  	338         	-75.478520	37.843268	169  	169   	-12.4
30                      	991.6             	0.3  	38                      	3.3  	338         	-75.478504	37.843245	174  	174   	-12.4
31                      	990.9             	0.2  	38                      	3.3  	338         	-75.478488	37.843222	180  	180   	-12.4
32                      	990.2             	0.2  	38                      	3.2  	337         	-75.478472	37.843199	186  	186   	-12.4
33                      	989.5             	0.1  	38                      	3.2  	337         	-75.478456	37.843176	191  	191   	-12.5
34                      	988.8             	0.1  	38                      	3.2  	337         	-75.478441	37.843154	197  	197   	-12.5
35                      	988.1             	0.0  	38                      	3.2  	336         	-75.478425	37.843131	203  	202   	-12.5
36                      	987.4             	-0.1 	38                      	3.1  	336         	-75.478409	37.843108	208  	208   	-12.5
37                      	986.7             	-0.1 	38                      	3.1  	335         	-75.478393	37.843085	214  	214   	-12.6
38                      	986.0             	-0.2 	38                      	3.1  	335         	-75.478377	37.843062	219  	219   	-12.6
39                      	985.3             	-0.2 	38                      	3.1  	335         	-75.478361	37.843039	225  	225   	-12.6
40                      	984.6             	-0.3 	38                      	3.1  	334         	-75.478346	37.843016	231  	230   	-12.6
41                      	983.9             	-0.3 	39                      	3.0  	334         	-75.478330	37.842993	236  	236   	-12.7
42                      	983.2             	-0.4 	39                      	3.0  	333         	-75.478314	37.842970	242  	242   	-12.7
43                      	982.6             	-0.4 	39                      	3.0  	333         	-75.478298	37.842947	247  	247   	-12.7
44                      	981.9             	-0.5 	39                      	3.0  	333         	-75.478282	37.842925	253  	253   	-12.7
45                      	981.2             	-0.5 	39                      	3.0  	332         	-75.478266	37.842902	259  	259   	-12.8
46                      	980.5             	-0.6 	39                      	2.9  	332         	-75.478250	37.842874	264  	264   	-12.8
47                      	979.8             	-0.6 	39                      	2.9  	331         	-75.478233	37.842846	270  	270   	-12.8
48                      	979.1             	-0.7 	39                      	2.9  	331         	-75.478216	37.842818	275  	275   	-12.8
49                      	978.4             	-0.7 	39                      	2.9  	330         	-75.478199	37.842791	281  	281   	-12.8
50                      	977.8             	-0.8 	39                      	2.9  	330         	-75.478182	37.842763	287  	286   	-12.8
51                      	977.1             	-0.9 	39                      	2.8  	329         	-75.478165	37.842735	292  	292   	-12.9
52                      	976.4             	-0.9 	40                      	2.8  	329         	-75.478148	37.842707	298  	297   	-12.9
53                      	975.7             	-1.0 	40                      	2.8  	329         	-75.478131	37.842679	303  	303   	-12.9
54                      	975.0             	-1.0 	40                      	2.8  	328         	-75.478114	37.842651	309  	309   	-12.9
55                      	974.4             	-1.1 	40                      	2.8  	328         	-75.478098	37.842624	314  	314   	-12.9
56                      	973.7             	-1.1 	40                      	2.7  	327         	-75.478081	37.842596	320  	320   	-12.9
57                      	973.0             	-1.2 	40                      	2.7  	327         	-75.478064	37.842568	325  	325   	-12.9
58                      	972.3             	-1.2 	40                      	2.7  	326         	-75.478047	37.842540	331  	331   	-12.9
59                      	971.7             	-1.3 	40                      	2.7  	326         	-75.478030	37.842512	337  	336   	-12.9
60                      	971.0             	-1.3 	41                      	2.7  	325         	-75.478013	37.842485	342  	342   	-13.0
61                      	970.3             	-1.4 	41                      	2.8  	325         	-75.477996	37.842457	348  	347   	-13.0
62                      	969.6             	-1.5 	41                      	2.9  	326         	-75.477979	37.842429	353  	353   	-13.0
63                      	968.9             	-1.5 	41                      	3.0  	326         	-75.477962	37.842401	359  	358   	-13.1
64                      	968.3             	-1.6 	41                      	3.1  	326         	-75.477945	37.842373	364  	364   	-13.1
65                      	967.6             	-1.6 	41                      	3.2  	327         	-75.477929	37.842345	370  	370   	-13.2
66                      	966.9             	-1.6 	41                      	3.3  	327         	-75.477912	37.842318	375  	375   	-13.2
67                      	966.2             	-1.7 	41                      	3.4  	327         	-75.477895	37.842290	381  	381   	-13.2
68                      	965.6             	-1.7 	41                      	3.5  	327         	-75.477878	37.842262	387  	386   	-13.2
69                      	964.9             	-1.7 	41                      	3.6  	327         	-75.477861	37.842234	392  	392   	-13.2
70                      	964.2             	-1.7 	41                      	3.7  	328         	-75.477844	37.842206	398  	397   	-13.2
71                      	963.6             	-1.8 	41                      	3.8  	328         	-75.477827	37.842178	403  	403   	-13.2
72                      	962.9             	-1.8 	41                      	3.9  	328         	-75.477810	37.842151	409  	408   	-13.3
73                      	962.2             	-1.9 	41                      	4.0  	328         	-75.477793	37.842123	414  	414   	-13.4
74                      	961.5             	-2.0 	41                      	4.1  	328         	-75.477776	37.842095	420  	420   	-13.4
75                      	960.9             	-2.1 	41                      	4.2  	328         	-75.477760	37.842067	425  	425   	-13.5
76                      	960.2             	-2.2 	41                      	4.3  	329         	-75.477737	37.842034	431  	431   	-13.6
77                      	959.5             	-2.2 	41                      	4.4  	329         	-75.477686	37.841974	437  	436   	-13.7
78                      	958.8             	-2.3 	41                      	4.5  	329         	-75.477634	37.841913	442  	442   	-13.7
79                      	958.2             	-2.3 	41                      	4.6  	329         	-75.477583	37.841853	448  	447   	-13.7
80                      	957.5             	-2.4 	41                      	4.7  	329         	-75.477532	37.841793	453  	453   	-13.8
81                      	956.8             	-2.4 	41                      	4.8  	329         	-75.477481	37.841732	459  	459   	-13.8
82                      	956.1             	-2.4 	41                      	4.9  	329         	-75.477429	37.841672	465  	464   	-13.9
83                      	955.5             	-2.5 	41                      	5.0  	329         	-75.477378	37.841612	470  	470   	-14.0
84                      	954.8             	-2.5 	40                      	5.1  	330         	-75.477327	37.841552	476  	475   	-14.1
85                      	954.1             	-2.5 	40                      	5.2  	330         	-75.477276	37.841491	481  	481   	-14.2
86                      	953.5             	-2.5 	40                      	5.3  	330         	-75.477224	37.841431	487  	487   	-14.3
87                      	952.8             	-2.6 	40                      	5.4  	330         	-75.477173	37.841371	493  	492   	-14.4
88                      	952.1             	-2.6 	39                      	5.5  	330         	-75.477122	37.841311	498  	498   	-14.5
89                      	951.4             	-2.6 	39                      	5.6  	330         	-75.477071	37.841250	504  	503   	-14.5
90                      	950.8             	-2.5 	39                      	5.7  	330         	-75.477019	37.841190	509  	509   	-14.6
91                      	950.1             	-2.5 	38                      	5.8  	330         	-75.476968	37.841130	515  	514   	-14.7
92                      	949.4             	-2.5 	38                      	6.0  	329         	-75.476917	37.841069	520  	520   	-14.7
93                      	948.8             	-2.5 	38                      	6.1  	329         	-75.476866	37.841009	526  	526   	-14.8
94                      	948.1             	-2.5 	38                      	6.2  	328         	-75.476814	37.840949	532  	531   	-14.9
95                      	947.4             	-2.5 	37                      	6.4  	328         	-75.476763	37.840889	537  	537   	-15.0
96                      	946.8             	-2.5 	37                      	6.5  	327         	-75.476712	37.840828	543  	542   	-15.1
97                      	946.1             	-2.5 	37                      	6.7  	327         	-75.476660	37.840768	548  	548   	-15.2
98                      	945.4             	-2.5 	36                      	6.8  	326         	-75.476609	37.840708	554  	554   	-15.3
99                      	944.8             	-2.5 	36                      	6.9  	326         	-75.476558	37.840648	560  	559   	-15.4
100                     	944.1             	-2.4 	36                      	7.1  	326         	-75.476507	37.840587	565  	565   	-15.4
101                     	943.4             	-2.3 	36                      	7.2  	325         	-75.476455	37.840527	571  	570   	-15.4
102                     	942.8             	-2.2 	36                      	7.4  	325         	-75.476404	37.840467	576  	576   	-15.3
103                     	942.1             	-2.2 	36                      	7.5  	325         	-75.476353	37.840406	582  	582   	-15.3
104                     	941.5             	-2.1 	35                      	7.6  	324         	-75.476302	37.840346	588  	587   	-15.3
105                     	940.8             	-2.0 	35                      	7.8  	324         	-75.476250	37.840286	593  	593   	-15.3
106                     	940.1             	-2.0 	35                      	7.9  	324         	-75.476199	37.840226	599  	598   	-15.3
107                     	939.5             	-1.9 	35                      	8.1  	324         	-75.476137	37.840175	604  	604   	-15.3
108                     	938.8             	-1.9 	35                      	8.2  	323         	-75.476065	37.840131	610  	609   	-15.3
109                     	938.2             	-1.9 	35                      	8.3  	323         	-75.475993	37.840088	615  	614   	-15.3
110                     	937.6             	-1.8 	35                      	8.5  	323         	-75.475922	37.840045	620  	620   	-15.3
111                     	937.0             	-1.9 	34                      	8.4  	322         	-75.475850	37.840001	626  	625   	-15.4
112                     	936.3             	-1.9 	34                      	8.4  	321         	-75.475778	37.839958	631  	630   	-15.5
113                     	935.7             	-1.9 	34                      	8.4  	321         	-75.475707	37.839915	636  	636   	-15.6
114                     	935.1             	-1.9 	34                      	8.3  	320         	-75.475635	37.839871	642  	641   	-15.6
115                     	934.4             	-2.0 	34                      	8.3  	320         	-75.475563	37.839828	647  	646   	-15.7
116                     	933.8             	-2.0 	34                      	8.3  	319         	-75.475492	37.839785	652  	652   	-15.8
117                     	933.2             	-2.0 	34                      	8.2  	318         	-75.475420	37.839741	658  	657   	-15.8
118                     	932.6             	-2.0 	34                      	8.2  	317         	-75.475348	37.839698	663  	662   	-15.8
119                     	931.9             	-2.0 	34                      	8.2  	317         	-75.475277	37.839655	668  	668   	-15.8
120                     	931.3             	-2.0 	34                      	8.2  	316         	-75.475205	37.839611	673  	673   	-15.8
121                     	930.7             	-2.0 	34                      	8.1  	315         	-75.475133	37.839568	679  	678   	-15.8
122                     	930.1             	-2.0 	34                      	8.1  	315         	-75.475062	37.839525	684  	684   	-15.8
123                     	929.4             	-2.0 	34                      	8.1  	314         	-75.474990	37.839481	689  	689   	-15.8
124                     	928.8             	-2.0 	34                      	8.1  	313         	-75.474918	37.839438	695  	694   	-15.8
125                     	928.2             	-2.1 	34                      	8.0  	313         	-75.474847	37.839395	700  	700   	-15.8
126                     	927.6             	-2.1 	34                      	8.0  	312         	-75.474775	37.839351	705  	705   	-15.7
127                     	927.0             	-2.2 	34                      	8.0  	311         	-75.474703	37.839308	711  	710   	-15.7
128                     	926.3             	-2.2 	35                      	8.0  	310         	-75.474632	37.839265	716  	716   	-15.7
129                     	925.7             	-2.3 	35                      	8.0  	310         	-75.474560	37.839221	721  	721   	-15.6
130                     	925.1             	-2.3 	35                      	8.0  	309         	-75.474488	37.839178	727  	726   	-15.6
131                     	924.5             	-2.3 	35                      	7.9  	309         	-75.474417	37.839134	732  	731   	-15.5
132                     	923.9             	-2.4 	36                      	7.9  	309         	-75.474345	37.839091	737  	737   	-15.5
133                     	923.2             	-2.4 	36                      	7.9  	308         	-75.474274	37.839048	743  	742   	-15.4
134                     	922.6             	-2.5 	36                      	7.9  	308         	-75.474202	37.839004	748  	747   	-15.4
135                     	922.0             	-2.5 	36                      	7.9  	308         	-75.474130	37.838961	753  	753   	-15.4
136                     	921.4             	-2.5 	36                      	7.8  	308         	-75.474059	37.838918	759  	758   	-15.3
137                     	920.8             	-2.5 	37                      	7.8  	308         	-75.473988	37.838878	764  	763   	-15.3
138                     	920.2             	-2.6 	37                      	7.8  	307         	-75.473919	37.838840	769  	768   	-15.2
139                     	919.6             	-2.6 	37                      	7.8  	307         	-75.473849	37.838802	774  	774   	-15.2
140                     	919.0             	-2.6 	37                      	7.8  	307         	-75.473779	37.838764	779  	779   	-15.2
141                     	918.4             	-2.6 	37                      	7.7  	307         	-75.473710	37.838726	784  	784   	-15.1
142                     	917.8             	-2.7 	37                      	7.7  	307         	-75.473640	37.838688	790  	789   	-15.1
143                     	917.2             	-2.7 	38                      	7.7  	306         	-75.473570	37.838650	795  	794   	-15.1
144                     	916.6             	-2.8 	38                      	7.7  	306         	-75.473501	37.838612	800  	799   	-15.1
145                     	916.0             	-2.8 	38                      	7.7  	306         	-75.473431	37.838574	805  	804   	-15.2
